wavelength	n_x	k_x	n_y	k_y	n_z	k_z
0.206640	0.869629	2.110210	0.869629	2.110210	0.943441	2.034003
0.207670	0.876617	2.128214	0.876617	2.128214	0.948328	2.052642
0.208700	0.883812	2.146491	0.883812	2.146491	0.953486	2.071551
0.209750	0.891229	2.165041	0.891229	2.165041	0.958925	2.090724
0.210810	0.898875	2.183815	0.898875	2.183815	0.964616	2.110160
0.211880	0.906757	2.202961	0.906757	2.202961	0.970598	2.129962
0.212950	0.914892	2.222406	0.914892	2.222406	0.976869	2.150076
0.214040	0.923282	2.242124	0.923282	2.242124	0.983452	2.170455
0.215150	0.931949	2.262141	0.931949	2.262141	0.990350	2.191146
0.216260	0.940894	2.282459	0.940894	2.282459	0.997547	2.212138
0.217380	0.950162	2.303147	0.950162	2.303147	1.005136	2.233506
0.218520	0.959737	2.324209	0.959737	2.324209	1.013073	2.255234
0.219670	0.969636	2.345572	0.969636	2.345572	1.021359	2.277266
0.220830	0.979874	2.367334	0.979874	2.367334	1.030002	2.299701
0.222000	0.990510	2.389442	0.990510	2.389442	1.039130	2.322465
0.223180	1.001491	2.411953	1.001491	2.411953	1.048589	2.345617
0.224380	1.012876	2.434860	1.012876	2.434860	1.058508	2.369191
0.225590	1.024720	2.458142	1.024720	2.458142	1.068912	2.393118
0.226810	1.037058	2.481823	1.037058	2.481823	1.079841	2.417456
0.228050	1.049761	2.505954	1.049761	2.505954	1.091166	2.442199
0.229300	1.063058	2.530483	1.063058	2.530483	1.103117	2.467354
0.230570	1.076821	2.555487	1.076821	2.555487	1.115553	2.492962
0.231840	1.091253	2.580891	1.091253	2.580891	1.128670	2.518973
0.233140	1.106178	2.606768	1.106178	2.606768	1.142319	2.545446
0.234440	1.121769	2.633119	1.121769	2.633119	1.156655	2.572377
0.235770	1.138026	2.659945	1.138026	2.659945	1.171677	2.599764
0.237100	1.154976	2.687342	1.154976	2.687342	1.187430	2.627718
0.238450	1.172741	2.715118	1.172741	2.715118	1.203984	2.656015
0.239820	1.191201	2.743417	1.191201	2.743417	1.221252	2.684865
0.241200	1.210599	2.772239	1.210599	2.772239	1.239479	2.714181
0.242600	1.230864	2.801561	1.230864	2.801561	1.258586	2.744001
0.244020	1.252143	2.831359	1.252143	2.831359	1.278694	2.774268
0.245450	1.274388	2.861731	1.274388	2.861731	1.299790	2.805098
0.246900	1.297747	2.892578	1.297747	2.892578	1.321988	2.836377
0.248370	1.322273	2.923924	1.322273	2.923924	1.345369	2.868163
0.249850	1.348012	2.955745	1.348012	2.955745	1.369954	2.900400
0.251350	1.375065	2.988068	1.375065	2.988068	1.395837	2.933133
0.252870	1.403528	3.020839	1.403528	3.020839	1.423132	2.966276
0.254410	1.433580	3.054039	1.433580	3.054039	1.451981	2.999855
0.255970	1.465144	3.087613	1.465144	3.087613	1.482340	3.033789
0.257550	1.498422	3.121615	1.498422	3.121615	1.514397	3.068166
0.259140	1.533530	3.155894	1.533530	3.155894	1.548239	3.102783
0.260760	1.570625	3.190401	1.570625	3.190401	1.584045	3.137639
0.262390	1.609779	3.225137	1.609779	3.225137	1.621872	3.172729
0.264050	1.651064	3.259903	1.651064	3.259903	1.661782	3.207848
0.265730	1.694782	3.294652	1.694782	3.294652	1.704071	3.242981
0.267430	1.740857	3.329329	1.740857	3.329329	1.748691	3.278049
0.269150	1.789609	3.363692	1.789609	3.363692	1.795914	3.312824
0.270890	1.841067	3.397591	1.841067	3.397591	1.845776	3.347191
0.272660	1.895528	3.430828	1.895528	3.430828	1.898586	3.380953
0.274450	1.952892	3.463130	1.952892	3.463130	1.954242	3.413846
0.276260	2.013432	3.494398	2.013432	3.494398	2.013009	3.445768
0.278100	2.077275	3.524138	2.077275	3.524138	2.075024	3.476283
0.279960	2.144393	3.552152	2.144393	3.552152	2.140250	3.505186
0.281850	2.215010	3.578067	2.215010	3.578067	2.208935	3.532117
0.283760	2.288956	3.601365	2.288956	3.601365	2.280917	3.556594
0.285700	2.366281	3.621700	2.366281	3.621700	2.356283	3.578296
0.287660	2.446959	3.638530	2.446959	3.638530	2.434996	3.596693
0.289660	2.530694	3.651481	2.530694	3.651481	2.516822	3.611423
0.291680	2.617368	3.659910	2.617368	3.659910	2.601687	3.621857
0.293720	2.706507	3.663348	2.706507	3.663348	2.689132	3.627519
0.295800	2.797845	3.661327	2.797845	3.661327	2.778961	3.627938
0.297910	2.890763	3.653450	2.890763	3.653450	2.870592	3.622695
0.300050	2.984599	3.639249	2.984599	3.639249	2.963417	3.611310
0.302220	3.078664	3.618378	3.078664	3.618378	3.056785	3.593382
0.304420	3.172170	3.590760	3.172170	3.590760	3.149939	3.568771
0.306650	3.264261	3.556219	3.264261	3.556219	3.242050	3.537238
0.308910	3.354026	3.514952	3.354026	3.514952	3.332207	3.498912
0.311210	3.440557	3.467195	3.440557	3.467195	3.419489	3.453949
0.313540	3.523020	3.413288	3.523020	3.413288	3.503030	3.402615
0.315910	3.600700	3.353817	3.600700	3.353817	3.582053	3.345465
0.318320	3.672909	3.289430	3.672909	3.289430	3.655814	3.283076
0.320760	3.739074	3.220908	3.739074	3.220908	3.723664	3.216225
0.323240	3.798751	3.149120	3.798751	3.149120	3.785093	3.145752
0.325760	3.851848	3.075024	3.851848	3.075024	3.839930	3.072661
0.328310	3.898159	2.999341	3.898159	2.999341	3.887914	2.997681
0.330910	3.937786	2.923085	3.937786	2.923085	3.929099	2.921889
0.333550	3.970914	2.847031	3.970914	2.847031	3.963645	2.846086
0.336230	3.997870	2.771825	3.997870	2.771825	3.991861	2.770976
0.338960	4.018932	2.698216	4.018932	2.698216	4.014028	2.697355
0.341730	4.034721	2.626653	4.034721	2.626653	4.030766	2.625715
0.344540	4.045472	2.557791	4.045472	2.557791	4.042331	2.556737
0.347410	4.051963	2.491782	4.051963	2.491782	4.049514	2.490598
0.350320	4.054528	2.429043	4.054528	2.429043	4.052672	2.427733
0.353280	4.053761	2.369689	4.053761	2.369689	4.052424	2.368272
0.356290	4.050198	2.313982	4.050198	2.313982	4.049320	2.312474
0.359350	4.044205	2.261851	4.044205	2.261851	4.043746	2.260268
0.362460	4.036310	2.213305	4.036310	2.213305	4.036239	2.211669
0.365630	4.026937	2.168387	4.026937	2.168387	4.027243	2.166706
0.368860	4.016427	2.127089	4.016427	2.127089	4.017098	2.125364
0.372140	4.005139	2.089201	4.005139	2.089201	4.006170	2.087430
0.375480	3.993399	2.054627	3.993399	2.054627	3.994794	2.052798
0.378880	3.981440	2.023327	3.981440	2.023327	3.983199	2.021424
0.382350	3.969560	1.995033	3.969560	1.995033	3.971684	1.993031
0.385880	3.958033	1.969777	3.958033	1.969777	3.960515	1.967642
0.389470	3.946975	1.947331	3.946975	1.947331	3.949818	1.945028
0.393130	3.936590	1.927512	3.936590	1.927512	3.939780	1.925008
0.396860	3.927049	1.910236	3.927049	1.910236	3.930576	1.907482
0.400660	3.918553	1.895261	3.918553	1.895261	3.922396	1.892208
0.404540	3.911194	1.882617	3.911194	1.882617	3.915327	1.879223
0.408490	3.905042	1.872046	3.905042	1.872046	3.909440	1.868258
0.412520	3.900230	1.863435	3.900230	1.863435	3.904852	1.859209
0.416630	3.896929	1.856726	3.896929	1.856726	3.901733	1.852009
0.420820	3.895242	1.851679	3.895242	1.851679	3.900172	1.846422
0.425100	3.895129	1.848262	3.895129	1.848262	3.900130	1.842422
0.429470	3.896761	1.846447	3.896761	1.846447	3.901774	1.839973
0.433920	3.900343	1.845919	3.900343	1.845919	3.905289	1.838777
0.438470	3.905774	1.846749	3.905774	1.846749	3.910572	1.838902
0.443120	3.913184	1.848778	3.913184	1.848778	3.917758	1.840188
0.447860	3.922720	1.851820	3.922720	1.851820	3.926963	1.842466
0.452710	3.934480	1.855990	3.934480	1.855990	3.938292	1.845839
0.457670	3.948570	1.860970	3.948570	1.860970	3.951828	1.850014
0.462730	3.964985	1.866844	3.964985	1.866844	3.967580	1.855061
0.467910	3.984006	1.873384	3.984006	1.873384	3.985790	1.860788
0.473200	4.005626	1.880615	4.005626	1.880615	4.006473	1.867197
0.478620	4.030025	1.888307	4.030025	1.888307	4.029769	1.874100
0.484160	4.057445	1.896501	4.057445	1.896501	4.055912	1.881532
0.489830	4.087858	1.905066	4.087858	1.905066	4.084862	1.889366
0.495640	4.121667	1.913885	4.121667	1.913885	4.117007	1.897522
0.501580	4.159062	1.922755	4.159062	1.922755	4.152498	1.905802
0.507670	4.200215	1.931673	4.200215	1.931673	4.191492	1.914224
0.513910	4.245473	1.940533	4.245473	1.940533	4.234309	1.922701
0.520300	4.295200	1.949045	4.295200	1.949045	4.281248	1.930994
0.526860	4.349843	1.957272	4.349843	1.957272	4.332728	1.939194
0.533580	4.409740	1.964863	4.409740	1.964863	4.389006	1.946999
0.540480	4.475513	1.971663	4.475513	1.971663	4.450651	1.954325
0.547560	4.547847	1.977515	4.547847	1.977515	4.518235	1.961096
0.554820	4.627331	1.982202	4.627331	1.982202	4.592218	1.967172
0.562280	4.714596	1.985586	4.714596	1.985586	4.673145	1.972549
0.569940	4.809799	1.987736	4.809799	1.987736	4.761084	1.977358
0.577820	4.912191	1.989176	4.912191	1.989176	4.855417	1.982119
0.585910	5.017766	1.991478	5.017766	1.991478	4.952810	1.987997
0.594240	5.116729	1.998577	5.116729	1.998577	5.045382	1.997715
0.602810	5.191852	2.017042	5.191852	2.017042	5.119317	2.015638
0.611620	5.140339	1.811829	5.140339	1.811829	5.102056	1.841779
0.620700	5.062506	1.620824	5.062506	1.620824	5.063749	1.659890
0.630050	4.986291	1.479810	4.986291	1.479810	5.019682	1.506653
0.639690	4.914475	1.357676	4.914475	1.357676	4.973708	1.358458
0.649630	4.849721	1.243569	4.849721	1.243569	4.930570	1.207204
0.659880	4.791630	1.132703	4.791630	1.132703	4.892907	1.049292
0.670460	4.738483	1.022760	4.738483	1.022760	4.862974	0.883237
0.681380	4.697952	0.963566	4.697952	0.963566	4.835419	0.773818
0.692670	4.675743	1.000166	4.675743	1.000166	4.810800	0.767101
0.704330	4.619978	0.887334	4.619978	0.887334	4.712009	0.718395
0.716400	4.570155	0.810364	4.570155	0.810364	4.635392	0.678161
0.728890	4.521585	0.744263	4.521585	0.744263	4.567329	0.640618
0.741820	4.474194	0.682729	4.474194	0.682729	4.504670	0.603267
0.755210	4.428393	0.622887	4.428393	0.622887	4.446323	0.564364
0.769100	4.384613	0.563134	4.384613	0.563134	4.392177	0.522668
0.783510	4.343152	0.502392	4.343152	0.502392	4.342601	0.477268
0.798470	4.304108	0.439914	4.304108	0.439914	4.298239	0.427555
0.814020	4.268606	0.387506	4.268606	0.387506	4.261238	0.383525
0.830180	4.238890	0.374401	4.238890	0.374401	4.231974	0.371004
0.846990	4.210829	0.360117	4.210829	0.360117	4.204345	0.357223
0.864500	4.182199	0.346369	4.182199	0.346369	4.175950	0.344005
0.882750	4.156255	0.333034	4.156255	0.333034	4.150295	0.331248
0.901790	4.131970	0.319391	4.131970	0.319391	4.126302	0.318160
0.921660	4.109174	0.305463	4.109174	0.305463	4.103798	0.304760
0.942430	4.087631	0.291312	4.087631	0.291312	4.082538	0.291109
0.964160	4.067409	0.276965	4.067409	0.276965	4.062596	0.277232
0.986910	4.048307	0.262474	4.048307	0.262474	4.043772	0.263176
1.010800	4.030295	0.247909	4.030295	0.247909	4.026038	0.249011
1.035800	4.013404	0.233324	4.013404	0.233324	4.009420	0.234788
1.062100	3.997505	0.218788	3.997505	0.218788	3.993788	0.220571
1.089800	3.982567	0.204402	3.982567	0.204402	3.979112	0.206456
1.119000	3.968593	0.190255	3.968593	0.190255	3.965386	0.192528
1.149700	3.955553	0.176465	3.955553	0.176465	3.952579	0.178894
1.182200	3.943480	0.163172	3.943480	0.163172	3.940711	0.165691
1.216600	3.932314	0.150507	3.932314	0.150507	3.929722	0.153042
1.253100	3.921862	0.138359	3.921862	0.138359	3.919435	0.140853
1.291800	3.911906	0.127969	3.911906	0.127969	3.909622	0.130221
1.332900	3.903079	0.118995	3.903079	0.118995	3.900865	0.120898
1.376800	3.895155	0.110979	3.895155	0.110979	3.892999	0.112486
1.423700	3.888203	0.103241	3.888203	0.103241	3.886137	0.104377
1.473900	3.882192	0.095830	3.882192	0.095830	3.880248	0.096627
1.527700	3.877124	0.088710	3.877124	0.088710	3.875331	0.089198
1.585700	3.873139	0.081705	3.873139	0.081705	3.871525	0.081910
1.648200	3.870236	0.074003	3.870236	0.074003	3.868828	0.073926
1.715800	3.868374	0.058526	3.868374	0.058526	3.867248	0.057948
1.789200	3.845952	0.051203	3.845952	0.051203	3.844360	0.050215
1.869200	3.834384	0.050101	3.834384	0.050101	3.832627	0.049004
1.956600	3.824941	0.049056	3.824941	0.049056	3.823079	0.047855
2.052700	3.816790	0.048091	3.816790	0.048091	3.814854	0.046782
2.158600	3.809446	0.047219	3.809446	0.047219	3.807447	0.045793
2.276100	3.802908	0.046454	3.802908	0.046454	3.800859	0.044900
2.407100	3.797100	0.045811	3.797100	0.045811	3.795003	0.044114
2.554100	3.791883	0.045305	3.791883	0.045305	3.789734	0.043443
2.720300	3.787287	0.044952	3.787287	0.044952	3.785081	0.042900
2.909500	3.783406	0.044770	3.783406	0.044770	3.781126	0.042495
3.127100	3.780230	0.044773	3.780230	0.044773	3.777852	0.042231
3.379800	3.777916	0.044966	3.777916	0.044966	3.775394	0.042102
3.677000	3.776589	0.045332	3.776589	0.045332	3.773856	0.042078
4.031500	3.776525	0.045799	3.776525	0.045799	3.773452	0.042065
4.461600	3.778306	0.046158	3.778306	0.046158	3.774676	0.041848
4.994500	3.782469	0.045832	3.782469	0.045832	3.777854	0.040881
5.671900	3.790524	0.043095	3.790524	0.043095	3.784071	0.037688
6.561900	3.804901	0.030320	3.804901	0.030320	3.794768	0.026285
7.783200	3.788413	0.008860	3.788413	0.008860	3.780736	0.008882
9.563100	3.781008	0.007218	3.781008	0.007218	3.774350	0.007232
12.398000	3.777051	0.005568	3.777051	0.005568	3.770845	0.005578
